
step: 1
  Orbital energies (eV):
    Occupied:
      -45.66623 -45.55324 -45.17716 -45.00198 -44.5794  -44.24806 -44.2121
      -44.11802 -43.96941 -43.63237 -43.10496 -42.92471 -42.74405 -42.40457
      -41.75266 -41.59628 -41.17919 -41.01576 -40.70018 -40.62968 -40.13807
      -40.0975  -40.09339 -40.01833 -39.15152 -38.94997 -38.05876 -38.02024
      -37.77744 -37.65045 -37.52319 -37.45204 -36.673   -36.62867 -35.71916
      -35.71194 -35.057   -34.8589  -34.5823  -34.35206 -33.88557 -33.71072
      -33.43666 -33.30856 -31.66459 -31.64596 -31.24248 -31.20077 -31.1135
      -30.9603  -30.19505 -30.09672 -29.98853 -29.82454 -29.12687 -28.89012
      -28.19751 -27.89933 -27.58017 -27.54847 -27.24555 -27.17821 -26.83
      -26.6715  -26.21947 -26.167   -26.12588 -26.0621  -25.78664 -25.63942
      -25.5104  -25.3549  -24.97183 -24.90853 -24.82621 -24.70601 -24.52055
      -24.27415 -24.23903 -24.09394 -24.01844 -23.94977 -23.72247 -23.67878
      -23.04275 -22.95955 -22.84434 -22.66108 -22.30038 -22.26964 -22.19758
      -22.11151 -22.04028 -22.01802 -21.75702 -21.73057 -21.66119 -21.56181
      -21.48363 -21.4272  -21.23222 -21.22037 -21.15084 -21.0655  -20.81183
      -20.68711 -20.44833 -20.37051 -20.1864  -20.12274 -20.106   -20.06756
      -19.9883  -19.95704 -19.85461 -19.76983 -19.727   -19.60846 -19.56649
      -19.46195 -19.39199 -19.33948 -19.20069 -19.18611 -19.14505 -19.09205
      -19.04863 -18.97965 -18.90388 -18.85271 -18.75569 -18.70289 -18.5749
      -18.54305 -18.50226 -18.45681 -18.41626 -18.39699 -18.37763 -18.35351
      -18.27432 -18.2078  -18.18296 -18.11261 -18.04533 -18.04155 -17.99703
      -17.92553 -17.88363 -17.84832 -17.80142 -17.70792 -17.68541 -17.52911
      -17.47523 -17.46584 -17.39504 -17.36131 -17.3534  -17.27982 -17.25332
      -17.21693 -17.20665 -17.14004 -17.0995  -17.09196 -17.07715 -17.01782
      -16.76654 -16.7039  -16.66466 -16.59843 -16.55701 -16.51769 -16.43778
      -16.40837 -16.40626 -16.3602  -16.27883 -16.18548 -16.16154 -16.13957
      -16.11528 -16.05743 -16.03543 -16.01747 -15.91419 -15.88208 -15.80152
      -15.77405 -15.70493 -15.69499 -15.66929 -15.62924 -15.60224 -15.56452
      -15.53188 -15.52292 -15.5     -15.46016 -15.39259 -15.23174 -15.19119
      -15.18368 -15.16649 -15.09392 -15.08892 -15.0262  -14.85293 -14.81762
      -14.76844 -14.72113 -14.30832 -14.25089 -14.22056 -14.18066 -14.10344
      -14.07555 -14.05916 -14.02169 -13.87859 -13.83589 -13.74964 -13.7139
      -13.69742 -13.66123
    Virtual:
      -4.05772e+00 -4.01737e+00 -3.85722e+00 -3.82883e+00 -3.66940e+00
      -3.64927e+00 -3.36054e+00 -3.29802e+00 -3.20710e+00 -3.16128e+00
      -3.00842e+00 -2.94140e+00 -2.81265e+00 -2.79550e+00 -2.53148e+00
      -2.48331e+00 -2.43808e+00 -2.39854e+00 -2.32103e+00 -2.24613e+00
      -2.10160e+00 -2.05412e+00 -1.94051e+00 -1.88858e+00 -1.81488e+00
      -1.79826e+00 -1.70675e+00 -1.70529e+00 -1.63947e+00 -1.61142e+00
      -1.60307e+00 -1.57497e+00 -1.51283e+00 -1.49217e+00 -1.22275e+00
      -1.20241e+00 -1.07620e+00 -1.03427e+00 -9.76840e-01 -9.56500e-01
      -9.17420e-01 -8.85670e-01 -8.39690e-01 -8.35330e-01 -7.71050e-01
      -7.44190e-01 -7.19790e-01 -6.65720e-01 -6.61570e-01 -6.44740e-01
      -6.19120e-01 -5.47300e-01 -5.33190e-01 -4.80620e-01 -4.74860e-01
      -4.50030e-01 -4.33920e-01 -4.19830e-01 -3.95990e-01 -3.79570e-01
      -3.63210e-01 -3.15960e-01 -2.88500e-01 -2.84660e-01 -2.73230e-01
      -2.56590e-01 -2.23470e-01 -2.09890e-01 -2.06980e-01 -1.76540e-01
      -1.71480e-01 -1.56250e-01 -1.43790e-01 -1.34480e-01 -1.12770e-01
      -1.06540e-01 -7.10800e-02 -6.60000e-02 -3.51300e-02 -1.61800e-02
      -8.46000e-03  5.00000e-05  4.46600e-02  6.54700e-02  7.96900e-02
       9.88000e-02  1.04450e-01  1.43820e-01  1.71260e-01  1.89400e-01
       2.00370e-01  2.36090e-01  2.36400e-01  2.69610e-01  3.02650e-01
       3.31760e-01  3.44890e-01  3.67160e-01  3.74270e-01  3.82450e-01
       4.01890e-01  4.07210e-01  4.45730e-01  4.57680e-01  4.85100e-01
       5.10090e-01  5.18530e-01  5.44610e-01  5.73630e-01  6.07420e-01
       6.33500e-01  6.50290e-01  6.78380e-01  7.16460e-01  7.66400e-01
       7.82090e-01  7.88440e-01  7.95530e-01  8.22130e-01  8.36570e-01
       8.41810e-01  8.86600e-01  9.10460e-01  9.26330e-01  9.39640e-01
       9.64580e-01  9.80370e-01  1.01372e+00  1.04621e+00  1.05408e+00
       1.07568e+00  1.08375e+00  1.08490e+00  1.08923e+00  1.13096e+00
       1.14346e+00  1.15438e+00  1.17609e+00  1.17681e+00  1.21673e+00
       1.22152e+00  1.25011e+00  1.25962e+00  1.26110e+00  1.27305e+00
       1.29568e+00  1.30189e+00  1.30416e+00  1.31280e+00  1.31973e+00
       1.34053e+00  1.34313e+00  1.35674e+00  1.36510e+00  1.39894e+00
       1.44367e+00  1.45690e+00  1.47225e+00  1.47885e+00  1.52656e+00
       1.53879e+00  1.57255e+00  1.60285e+00  1.63777e+00  1.64345e+00
       1.69713e+00  1.70423e+00  1.71575e+00  1.71959e+00  1.75729e+00
       1.76566e+00  1.84340e+00  1.87816e+00  1.89490e+00  1.95095e+00
       1.95581e+00  1.97516e+00  2.04478e+00  2.05892e+00  2.07675e+00
       2.07753e+00  2.12429e+00  2.18212e+00  2.19332e+00  2.50667e+00
       2.54123e+00  2.57121e+00  2.60063e+00  2.62518e+00  2.65894e+00
       2.83931e+00  2.92099e+00  3.02545e+00  3.07554e+00  3.25161e+00
       3.30562e+00 
  dipole(x,y,z):  0.667597 -1.787316  1.241738 
  Electronic entropy contribution (eV): -0.0 
  Fermi occupancies:
    Occupied:
      1. 1. 1. 1. 1. 1. 1. 1. 1. 1. 1. 1. 1. 1. 1. 1. 1. 1. 1. 1. 1. 1. 1. 1.
      1. 1. 1. 1. 1. 1. 1. 1. 1. 1. 1. 1. 1. 1. 1. 1. 1. 1. 1. 1. 1. 1. 1. 1.
      1. 1. 1. 1. 1. 1. 1. 1. 1. 1. 1. 1. 1. 1. 1. 1. 1. 1. 1. 1. 1. 1. 1. 1.
      1. 1. 1. 1. 1. 1. 1. 1. 1. 1. 1. 1. 1. 1. 1. 1. 1. 1. 1. 1. 1. 1. 1. 1.
      1. 1. 1. 1. 1. 1. 1. 1. 1. 1. 1. 1. 1. 1. 1. 1. 1. 1. 1. 1. 1. 1. 1. 1.
      1. 1. 1. 1. 1. 1. 1. 1. 1. 1. 1. 1. 1. 1. 1. 1. 1. 1. 1. 1. 1. 1. 1. 1.
      1. 1. 1. 1. 1. 1. 1. 1. 1. 1. 1. 1. 1. 1. 1. 1. 1. 1. 1. 1. 1. 1. 1. 1.
      1. 1. 1. 1. 1. 1. 1. 1. 1. 1. 1. 1. 1. 1. 1. 1. 1. 1. 1. 1. 1. 1. 1. 1.
      1. 1. 1. 1. 1. 1. 1. 1. 1. 1. 1. 1. 1. 1. 1. 1. 1. 1. 1. 1. 1. 1. 1. 1.
      1. 1. 1. 1. 1. 1. 1. 1. 1. 1.
    Virtual:
      0. 0. 0. 0. 0. 0. 0. 0. 0. 0. 0. 0. 0. 0. 0. 0. 0. 0. 0. 0. 0. 0. 0. 0.
      0. 0. 0. 0. 0. 0. 0. 0. 0. 0. 0. 0. 0. 0. 0. 0. 0. 0. 0. 0. 0. 0. 0. 0.
      0. 0. 0. 0. 0. 0. 0. 0. 0. 0. 0. 0. 0. 0. 0. 0. 0. 0. 0. 0. 0. 0. 0. 0.
      0. 0. 0. 0. 0. 0. 0. 0. 0. 0. 0. 0. 0. 0. 0. 0. 0. 0. 0. 0. 0. 0. 0. 0.
      0. 0. 0. 0. 0. 0. 0. 0. 0. 0. 0. 0. 0. 0. 0. 0. 0. 0. 0. 0. 0. 0. 0. 0.
      0. 0. 0. 0. 0. 0. 0. 0. 0. 0. 0. 0. 0. 0. 0. 0. 0. 0. 0. 0. 0. 0. 0. 0.
      0. 0. 0. 0. 0. 0. 0. 0. 0. 0. 0. 0. 0. 0. 0. 0. 0. 0. 0. 0. 0. 0. 0. 0.
      0. 0. 0. 0. 0. 0. 0. 0. 0. 0. 0. 0. 0. 0. 0. 0. 0. 0. 0. 0. 0. 0. 0. 0.
      0. 0. 0. 0. 
  Rank-m Krylov subspace approximation error: 0.008671537660466766 

step: 2
  Orbital energies (eV):
    Occupied:
      -45.66371 -45.54951 -45.17665 -45.00449 -44.5689  -44.24788 -44.20923
      -44.11325 -43.95547 -43.62515 -43.10469 -42.9274  -42.73675 -42.3997
      -41.74829 -41.59288 -41.16929 -41.01503 -40.70166 -40.6204  -40.12879
      -40.08772 -40.08345 -40.02085 -39.15694 -38.94979 -38.05605 -38.00642
      -37.79309 -37.62047 -37.51814 -37.43031 -36.65899 -36.629   -35.72966
      -35.7075  -35.05586 -34.85734 -34.58468 -34.35656 -33.88427 -33.71125
      -33.43196 -33.30385 -31.66898 -31.63505 -31.23391 -31.20016 -31.12661
      -30.94882 -30.19029 -30.08467 -29.985   -29.81924 -29.12222 -28.88472
      -28.19372 -27.89505 -27.57625 -27.54479 -27.24059 -27.16846 -26.82233
      -26.6658  -26.21231 -26.16434 -26.1184  -26.05407 -25.78592 -25.63829
      -25.51439 -25.36021 -24.9812  -24.89996 -24.82311 -24.6953  -24.52755
      -24.28163 -24.23715 -24.09154 -24.02791 -23.93371 -23.72522 -23.68061
      -23.04384 -22.95854 -22.84067 -22.66124 -22.29424 -22.26551 -22.19264
      -22.10387 -22.04339 -22.01569 -21.75711 -21.72516 -21.65748 -21.55748
      -21.48259 -21.42772 -21.23118 -21.21717 -21.14978 -21.06521 -20.81424
      -20.68045 -20.44448 -20.36603 -20.18461 -20.1215  -20.1051  -20.06518
      -19.9873  -19.9523  -19.85516 -19.76536 -19.72745 -19.60328 -19.56461
      -19.45684 -19.39395 -19.33523 -19.19415 -19.18321 -19.13944 -19.09104
      -19.04152 -18.97942 -18.90468 -18.8514  -18.75919 -18.70293 -18.57269
      -18.54285 -18.50074 -18.4514  -18.42232 -18.3951  -18.37694 -18.35254
      -18.26761 -18.20538 -18.18002 -18.10413 -18.03805 -18.03406 -17.99227
      -17.92037 -17.88194 -17.84347 -17.80109 -17.70233 -17.68565 -17.5343
      -17.47693 -17.45609 -17.39064 -17.3583  -17.3465  -17.27721 -17.25094
      -17.21578 -17.20235 -17.12545 -17.1023  -17.08713 -17.07583 -17.00866
      -16.76343 -16.70447 -16.6641  -16.6057  -16.55709 -16.50793 -16.44237
      -16.40601 -16.40294 -16.35969 -16.28136 -16.17322 -16.17006 -16.1339
      -16.12218 -16.0491  -16.02041 -16.01899 -15.91213 -15.87854 -15.7929
      -15.76689 -15.70288 -15.69273 -15.66875 -15.62415 -15.59768 -15.56038
      -15.53045 -15.51489 -15.49692 -15.45366 -15.38768 -15.22647 -15.18536
      -15.17584 -15.15676 -15.09238 -15.08571 -15.01759 -14.85997 -14.81948
      -14.77031 -14.73567 -14.31121 -14.24725 -14.21565 -14.17591 -14.10683
      -14.07377 -14.06148 -14.02243 -13.87314 -13.83819 -13.74985 -13.71393
      -13.7008  -13.65509
    Virtual:
      -4.05912e+00 -4.01150e+00 -3.85122e+00 -3.83056e+00 -3.66446e+00
      -3.65088e+00 -3.35918e+00 -3.29680e+00 -3.20207e+00 -3.15917e+00
      -3.01382e+00 -2.93935e+00 -2.81085e+00 -2.79801e+00 -2.52861e+00
      -2.48226e+00 -2.43908e+00 -2.39958e+00 -2.32445e+00 -2.24362e+00
      -2.10135e+00 -2.05498e+00 -1.93920e+00 -1.88792e+00 -1.82229e+00
      -1.79468e+00 -1.70130e+00 -1.69818e+00 -1.63764e+00 -1.60909e+00
      -1.60451e+00 -1.57242e+00 -1.51158e+00 -1.49683e+00 -1.22738e+00
      -1.18956e+00 -1.07377e+00 -1.03795e+00 -9.74100e-01 -9.54180e-01
      -9.17820e-01 -8.77330e-01 -8.39290e-01 -8.24840e-01 -7.74980e-01
      -7.42060e-01 -7.15770e-01 -6.67290e-01 -6.58170e-01 -6.44550e-01
      -6.18730e-01 -5.50160e-01 -5.29390e-01 -4.73600e-01 -4.70040e-01
      -4.45420e-01 -4.34360e-01 -4.16680e-01 -3.97210e-01 -3.81920e-01
      -3.60260e-01 -3.17080e-01 -2.88490e-01 -2.82370e-01 -2.74910e-01
      -2.56980e-01 -2.21380e-01 -2.11900e-01 -2.03760e-01 -1.79680e-01
      -1.73360e-01 -1.57130e-01 -1.42130e-01 -1.35970e-01 -1.11610e-01
      -1.01540e-01 -7.17400e-02 -6.22200e-02 -3.12700e-02 -2.75400e-02
      -7.96000e-03 -3.98000e-03  4.89400e-02  6.25300e-02  8.25200e-02
       9.57300e-02  1.07900e-01  1.55010e-01  1.68180e-01  1.96740e-01
       2.07500e-01  2.37950e-01  2.40280e-01  2.68550e-01  3.03290e-01
       3.33730e-01  3.50840e-01  3.69600e-01  3.72940e-01  3.83470e-01
       4.06240e-01  4.10560e-01  4.42290e-01  4.48160e-01  4.80260e-01
       5.08860e-01  5.17240e-01  5.42450e-01  5.68370e-01  6.07070e-01
       6.29670e-01  6.54670e-01  6.69700e-01  7.23350e-01  7.71660e-01
       7.79580e-01  7.87540e-01  7.93770e-01  8.17110e-01  8.31430e-01
       8.40040e-01  8.98420e-01  9.06470e-01  9.26900e-01  9.38620e-01
       9.63290e-01  9.81420e-01  1.01114e+00  1.04671e+00  1.05152e+00
       1.05625e+00  1.07168e+00  1.08022e+00  1.09584e+00  1.12692e+00
       1.13395e+00  1.17188e+00  1.17287e+00  1.17738e+00  1.21980e+00
       1.22959e+00  1.25467e+00  1.26041e+00  1.26225e+00  1.27475e+00
       1.30106e+00  1.30253e+00  1.30360e+00  1.30936e+00  1.31809e+00
       1.34388e+00  1.34774e+00  1.35477e+00  1.36756e+00  1.40034e+00
       1.44001e+00  1.45963e+00  1.47127e+00  1.47518e+00  1.52927e+00
       1.53347e+00  1.57383e+00  1.59752e+00  1.63748e+00  1.64618e+00
       1.69710e+00  1.70374e+00  1.70811e+00  1.71952e+00  1.76044e+00
       1.76143e+00  1.84762e+00  1.86936e+00  1.89319e+00  1.95349e+00
       1.96371e+00  1.98246e+00  2.05591e+00  2.06413e+00  2.07749e+00
       2.08316e+00  2.12444e+00  2.19304e+00  2.20509e+00  2.51044e+00
       2.54095e+00  2.56813e+00  2.59997e+00  2.62809e+00  2.65904e+00
       2.83532e+00  2.91959e+00  3.02975e+00  3.07976e+00  3.25470e+00
       3.30295e+00 
  dipole(x,y,z):  0.669909 -1.786203  1.229866 
  Electronic entropy contribution (eV): -0.0 
  Fermi occupancies:
    Occupied:
      1. 1. 1. 1. 1. 1. 1. 1. 1. 1. 1. 1. 1. 1. 1. 1. 1. 1. 1. 1. 1. 1. 1. 1.
      1. 1. 1. 1. 1. 1. 1. 1. 1. 1. 1. 1. 1. 1. 1. 1. 1. 1. 1. 1. 1. 1. 1. 1.
      1. 1. 1. 1. 1. 1. 1. 1. 1. 1. 1. 1. 1. 1. 1. 1. 1. 1. 1. 1. 1. 1. 1. 1.
      1. 1. 1. 1. 1. 1. 1. 1. 1. 1. 1. 1. 1. 1. 1. 1. 1. 1. 1. 1. 1. 1. 1. 1.
      1. 1. 1. 1. 1. 1. 1. 1. 1. 1. 1. 1. 1. 1. 1. 1. 1. 1. 1. 1. 1. 1. 1. 1.
      1. 1. 1. 1. 1. 1. 1. 1. 1. 1. 1. 1. 1. 1. 1. 1. 1. 1. 1. 1. 1. 1. 1. 1.
      1. 1. 1. 1. 1. 1. 1. 1. 1. 1. 1. 1. 1. 1. 1. 1. 1. 1. 1. 1. 1. 1. 1. 1.
      1. 1. 1. 1. 1. 1. 1. 1. 1. 1. 1. 1. 1. 1. 1. 1. 1. 1. 1. 1. 1. 1. 1. 1.
      1. 1. 1. 1. 1. 1. 1. 1. 1. 1. 1. 1. 1. 1. 1. 1. 1. 1. 1. 1. 1. 1. 1. 1.
      1. 1. 1. 1. 1. 1. 1. 1. 1. 1.
    Virtual:
      0. 0. 0. 0. 0. 0. 0. 0. 0. 0. 0. 0. 0. 0. 0. 0. 0. 0. 0. 0. 0. 0. 0. 0.
      0. 0. 0. 0. 0. 0. 0. 0. 0. 0. 0. 0. 0. 0. 0. 0. 0. 0. 0. 0. 0. 0. 0. 0.
      0. 0. 0. 0. 0. 0. 0. 0. 0. 0. 0. 0. 0. 0. 0. 0. 0. 0. 0. 0. 0. 0. 0. 0.
      0. 0. 0. 0. 0. 0. 0. 0. 0. 0. 0. 0. 0. 0. 0. 0. 0. 0. 0. 0. 0. 0. 0. 0.
      0. 0. 0. 0. 0. 0. 0. 0. 0. 0. 0. 0. 0. 0. 0. 0. 0. 0. 0. 0. 0. 0. 0. 0.
      0. 0. 0. 0. 0. 0. 0. 0. 0. 0. 0. 0. 0. 0. 0. 0. 0. 0. 0. 0. 0. 0. 0. 0.
      0. 0. 0. 0. 0. 0. 0. 0. 0. 0. 0. 0. 0. 0. 0. 0. 0. 0. 0. 0. 0. 0. 0. 0.
      0. 0. 0. 0. 0. 0. 0. 0. 0. 0. 0. 0. 0. 0. 0. 0. 0. 0. 0. 0. 0. 0. 0. 0.
      0. 0. 0. 0. 
  Rank-m Krylov subspace approximation error: 0.0073245004208790584 

step: 3
  Orbital energies (eV):
    Occupied:
      -45.66072 -45.54751 -45.17697 -45.00815 -44.55894 -44.24799 -44.2087
      -44.1091  -43.94057 -43.61744 -43.10491 -42.93148 -42.73007 -42.39579
      -41.74381 -41.58976 -41.15857 -41.01486 -40.70469 -40.61181 -40.1195
      -40.0789  -40.0696  -40.0255  -39.16443 -38.95005 -38.05478 -37.99162
      -37.80802 -37.58952 -37.51277 -37.41067 -36.64183 -36.63134 -35.7466
      -35.69635 -35.05441 -34.85703 -34.58679 -34.36098 -33.88356 -33.71224
      -33.42667 -33.3003  -31.67336 -31.62398 -31.22573 -31.20002 -31.13974
      -30.93683 -30.18476 -30.07346 -29.98172 -29.81293 -29.11739 -28.87927
      -28.18989 -27.89066 -27.5759  -27.53693 -27.23692 -27.15777 -26.814
      -26.66039 -26.20532 -26.16197 -26.11025 -26.04611 -25.78677 -25.63764
      -25.51924 -25.367   -24.98996 -24.89279 -24.82129 -24.6837  -24.53391
      -24.28925 -24.23546 -24.09173 -24.03741 -23.91765 -23.72573 -23.68017
      -23.04693 -22.95739 -22.83596 -22.66259 -22.28863 -22.26119 -22.18823
      -22.09496 -22.04565 -22.01408 -21.75752 -21.72096 -21.65339 -21.55397
      -21.48093 -21.42876 -21.23    -21.21389 -21.14899 -21.06584 -20.81688
      -20.67421 -20.44023 -20.36239 -20.18201 -20.12002 -20.10429 -20.0637
      -19.98723 -19.94757 -19.85584 -19.76116 -19.72885 -19.59812 -19.56309
      -19.45202 -19.39597 -19.33082 -19.18746 -19.18002 -19.13386 -19.08993
      -19.03401 -18.98011 -18.90683 -18.85004 -18.76381 -18.70301 -18.57031
      -18.54356 -18.50034 -18.44668 -18.42857 -18.39325 -18.37867 -18.35091
      -18.25949 -18.20308 -18.17765 -18.0958  -18.03375 -18.02329 -17.98665
      -17.9157  -17.87964 -17.83847 -17.8008  -17.69749 -17.68559 -17.53947
      -17.47891 -17.44596 -17.38699 -17.35478 -17.33854 -17.27504 -17.24947
      -17.21524 -17.19816 -17.11112 -17.10716 -17.08073 -17.07203 -16.99997
      -16.76085 -16.70618 -16.66523 -16.612   -16.56066 -16.49432 -16.44741
      -16.4037  -16.39644 -16.36072 -16.28301 -16.1781  -16.15964 -16.12895
      -16.12692 -16.0441  -16.01952 -16.001   -15.91123 -15.87558 -15.78512
      -15.76109 -15.70269 -15.69021 -15.66841 -15.62013 -15.59287 -15.55932
      -15.52805 -15.50866 -15.49303 -15.44427 -15.38134 -15.22096 -15.17913
      -15.16809 -15.14713 -15.08939 -15.08346 -15.00815 -14.86704 -14.82033
      -14.77367 -14.75025 -14.31428 -14.24582 -14.21073 -14.17203 -14.11043
      -14.07409 -14.06355 -14.02346 -13.86662 -13.84189 -13.74961 -13.71205
      -13.70683 -13.64918
    Virtual:
      -4.05971 -4.00557 -3.84373 -3.83317 -3.65921 -3.65188 -3.35749 -3.29799
      -3.19555 -3.15911 -3.01951 -2.93945 -2.80876 -2.80039 -2.52481 -2.48332
      -2.44088 -2.40091 -2.32867 -2.24278 -2.10191 -2.05774 -1.9391  -1.88834
      -1.83227 -1.79044 -1.69577 -1.68921 -1.63526 -1.60751 -1.60467 -1.57047
      -1.51081 -1.50108 -1.23061 -1.17707 -1.0707  -1.0437  -0.97426 -0.95346
      -0.9152  -0.86883 -0.83833 -0.81424 -0.78085 -0.73932 -0.71188 -0.67865
      -0.65192 -0.64403 -0.61843 -0.55137 -0.52592 -0.46901 -0.46521 -0.44316
      -0.43474 -0.4109  -0.39832 -0.38586 -0.35819 -0.31924 -0.29001 -0.27964
      -0.27546 -0.25772 -0.2207  -0.21519 -0.19978 -0.18273 -0.17649 -0.15996
      -0.14113 -0.13964 -0.11085 -0.09507 -0.07303 -0.05971 -0.037   -0.02975
      -0.00888 -0.00413  0.05315  0.05925  0.08716  0.09138  0.10843  0.16375
       0.16872  0.20478  0.21502  0.24103  0.24317  0.26703  0.30337  0.3351
       0.35544  0.36218  0.37339  0.38958  0.40963  0.4148   0.43378  0.44693
       0.47583  0.50743  0.51644  0.53978  0.56274  0.60557  0.62377  0.65848
       0.66002  0.73309  0.77454  0.7777   0.78769  0.79137  0.81236  0.82757
       0.83875  0.90147  0.90954  0.92737  0.93738  0.96008  0.98096  1.00683
       1.02226  1.0468   1.05652  1.06557  1.07372  1.10243  1.11083  1.13642
       1.16855  1.17293  1.1929   1.22283  1.23939  1.25633  1.26216  1.26361
       1.27755  1.3006   1.30192  1.30601  1.30877  1.31641  1.34599  1.35228
       1.35447  1.37138  1.40179  1.43549  1.46016  1.46883  1.46964  1.5245
       1.53378  1.57755  1.59159  1.63739  1.64861  1.69443  1.6969   1.70921
       1.7206   1.75835  1.7632   1.85017  1.85865  1.89115  1.95595  1.97206
       1.98984  2.05861  2.07405  2.08478  2.09042  2.12209  2.20451  2.21752
       2.51769  2.53951  2.56248  2.59637  2.6317   2.65771  2.82946  2.91592
       3.03507  3.08416  3.25891  3.29859 
  dipole(x,y,z):  0.672929 -1.784232  1.217483 
  Electronic entropy contribution (eV): -0.0 
  Fermi occupancies:
    Occupied:
      1. 1. 1. 1. 1. 1. 1. 1. 1. 1. 1. 1. 1. 1. 1. 1. 1. 1. 1. 1. 1. 1. 1. 1.
      1. 1. 1. 1. 1. 1. 1. 1. 1. 1. 1. 1. 1. 1. 1. 1. 1. 1. 1. 1. 1. 1. 1. 1.
      1. 1. 1. 1. 1. 1. 1. 1. 1. 1. 1. 1. 1. 1. 1. 1. 1. 1. 1. 1. 1. 1. 1. 1.
      1. 1. 1. 1. 1. 1. 1. 1. 1. 1. 1. 1. 1. 1. 1. 1. 1. 1. 1. 1. 1. 1. 1. 1.
      1. 1. 1. 1. 1. 1. 1. 1. 1. 1. 1. 1. 1. 1. 1. 1. 1. 1. 1. 1. 1. 1. 1. 1.
      1. 1. 1. 1. 1. 1. 1. 1. 1. 1. 1. 1. 1. 1. 1. 1. 1. 1. 1. 1. 1. 1. 1. 1.
      1. 1. 1. 1. 1. 1. 1. 1. 1. 1. 1. 1. 1. 1. 1. 1. 1. 1. 1. 1. 1. 1. 1. 1.
      1. 1. 1. 1. 1. 1. 1. 1. 1. 1. 1. 1. 1. 1. 1. 1. 1. 1. 1. 1. 1. 1. 1. 1.
      1. 1. 1. 1. 1. 1. 1. 1. 1. 1. 1. 1. 1. 1. 1. 1. 1. 1. 1. 1. 1. 1. 1. 1.
      1. 1. 1. 1. 1. 1. 1. 1. 1. 1.
    Virtual:
      0. 0. 0. 0. 0. 0. 0. 0. 0. 0. 0. 0. 0. 0. 0. 0. 0. 0. 0. 0. 0. 0. 0. 0.
      0. 0. 0. 0. 0. 0. 0. 0. 0. 0. 0. 0. 0. 0. 0. 0. 0. 0. 0. 0. 0. 0. 0. 0.
      0. 0. 0. 0. 0. 0. 0. 0. 0. 0. 0. 0. 0. 0. 0. 0. 0. 0. 0. 0. 0. 0. 0. 0.
      0. 0. 0. 0. 0. 0. 0. 0. 0. 0. 0. 0. 0. 0. 0. 0. 0. 0. 0. 0. 0. 0. 0. 0.
      0. 0. 0. 0. 0. 0. 0. 0. 0. 0. 0. 0. 0. 0. 0. 0. 0. 0. 0. 0. 0. 0. 0. 0.
      0. 0. 0. 0. 0. 0. 0. 0. 0. 0. 0. 0. 0. 0. 0. 0. 0. 0. 0. 0. 0. 0. 0. 0.
      0. 0. 0. 0. 0. 0. 0. 0. 0. 0. 0. 0. 0. 0. 0. 0. 0. 0. 0. 0. 0. 0. 0. 0.
      0. 0. 0. 0. 0. 0. 0. 0. 0. 0. 0. 0. 0. 0. 0. 0. 0. 0. 0. 0. 0. 0. 0. 0.
      0. 0. 0. 0. 
  Rank-m Krylov subspace approximation error: 0.009147439433219563 

step: 4
  Orbital energies (eV):
    Occupied:
      -45.65831 -45.54526 -45.178   -45.01169 -44.55078 -44.2487  -44.21008
